frequency,amplitude,phase,I,Q
10000000.0,-0.2377719792247795,-1.5032593970714099,0.06566327065229416,-0.9707785844802856
12598000.0,-0.308030845553776,-0.24975127812653913,0.935213029384613,-0.2385513335466385
15196000.0,-0.41912571702810353,1.0027613585205792,0.5126336812973022,0.8032496571540833
17794000.0,-0.5441900365518073,2.252379564876558,-0.5917620658874512,0.7294148206710815
20392000.0,-0.6467826212250355,3.498602479178249,-0.8697119355201721,-0.3243963420391083
22990000.0,-0.822229195583684,4.741620667144162,0.02658768743276596,-0.90929114818573
25588000.0,-1.0094647234395409,5.980839938561503,0.8498978614807129,-0.26508986949920654
28186000.0,-1.2413593918702517,7.217172390129567,0.5154435634613037,0.6969258189201355
30784000.0,-1.552882406604562,8.452125276142848,-0.4709216356277466,0.6910936832427979
33382000.0,-1.9531489728295366,9.68781616187032,-0.7711552381515503,-0.207654669880867
35980000.0,-2.420109708669677,10.92593024844765,-0.05266563594341278,-0.7549886703491211
38578000.0,-2.9480306447694065,12.170441057506576,0.6570978164672852,-0.2746691107749939
41176000.0,-3.5109734448020435,13.420669342794012,0.4383790194988251,0.5033688545227051
43774000.0,-4.110808392687317,14.678477661405251,-0.3209857940673828,0.5338972210884094
46372000.0,-4.726834270737528,15.942714644957563,-0.5643910765647888,-0.134980246424675
48970000.0,-5.3388193039480525,17.211681699964306,-0.03625039383769035,-0.5396115779876709
51568000.0,-5.941523786904295,18.48348038587469,0.47113943099975586,-0.18061372637748718
54166000.0,-6.534329865104135,19.756695461105206,0.2903122305870056,0.37125226855278015
56764000.0,-7.09648440667563,21.03279452440833,-0.25394728779792786,0.36145973205566406
59362000.0,-7.690220216821092,22.308261578893376,-0.3919912874698639,-0.12864699959754944
61960000.0,-8.31009088079396,23.582524072017474,0.007904832251369953,-0.3840638995170593
64558000.0,-8.975537626750194,24.85863923643508,0.3425310552120209,-0.09631266444921494
67156000.0,-9.665490594254258,26.136752847133383,0.17645619809627533,0.2772543430328369
69754000.0,-10.41378837040302,27.418975219427697,-0.1977788656949997,0.2275862693786621
72352000.0,-11.165527240019347,28.7056511367568,-0.25119346380233765,-0.11560332775115967
74950000.0,-11.968752091623411,29.998616904326134,0.03854132071137428,-0.24913032352924347
77548000.0,-12.73098702086279,31.2983288984694,0.22931936383247375,-0.02709241956472397
80146000.0,-13.52083194147294,32.6040332453515,0.0787321925163269,0.1955910325050354
82744000.0,-14.299758655615136,33.91425104729185,-0.15423321723937988,0.11561878025531769
85342000.0,-15.03741368667601,35.22903984852233,-0.13861893117427826,-0.11016494035720825
87940000.0,-15.782578711547286,36.546422666559074,0.06598278880119324,-0.14850816130638123
90538000.0,-16.50102412037296,37.865942539724024,0.14752879738807678,0.02484324388206005
93136000.0,-17.171463137537707,39.18436084182522,0.011833233758807182,0.1379862278699875
95734000.0,-17.867130245580096,40.50355364078415,-0.12063626945018768,0.04228716716170311
98332000.0,-18.56313056829509,41.82393971980667,-0.0654054656624794,-0.09820210933685303
100930000.0,-19.257492398781263,43.144360036054685,0.07287018746137619,-0.08095969259738922
103528000.0,-19.985083947403155,44.46563540365991,0.08869703114032745,0.04655363783240318
106126000.0,-20.707998840375176,45.787654315989016,-0.021422287449240685,0.08964822441339493
108724000.0,-21.4220998446069,47.11309946306758,-0.08489257842302322,0.000916055403649807
111322000.0,-22.18267224418029,48.44297686348782,-0.019371796399354935,-0.07532873749732971
113920000.0,-22.91521767678525,49.77724009024716,0.06313611567020416,-0.033533647656440735
116518000.0,-23.676258308724766,51.11502573270328,0.04324596747756004,0.04918297752737999
119116000.0,-24.388104763658074,52.45684588597052,-0.035086654126644135,0.04908834397792816
121714000.0,-25.103959753815307,53.80077167472119,-0.05131421238183975,-0.021315034478902817
124312000.0,-25.820499953358006,55.148007879398094,0.008663135580718517,-0.05042649805545807
126910000.0,-26.4812050976583,56.49821420022519,0.04735727980732918,-0.0023913730401545763
129508000.0,-27.11288676302637,57.84831599728601,0.011809390038251877,0.042480651289224625
132106000.0,-27.759040221397232,59.19858031433164,-0.036081988364458084,0.019323643296957016
134704000.0,-28.387277078526154,60.55178837884667,-0.024797223508358,-0.028892528265714645
137302000.0,-28.96864151142202,61.901673479488856,0.02128354273736477,-0.02854924276471138
139900000.0,-29.612987822411746,63.25598387250213,0.030134091153740883,0.01360663678497076
142498000.0,-30.223748919383823,64.6109137187576,-0.0063721113838255405,0.03015262447297573
145096000.0,-30.824584824475203,65.96305728006428,-0.0287572480738163,0.00029875384643673897
147694000.0,-31.406731405145436,67.31294159102718,-0.0061653899028897285,-0.02617827244102955
150292000.0,-31.980956279099217,68.67173847309013,0.02274070866405964,-0.01079769991338253
152890000.0,-32.524754708109114,70.02238552883632,0.014562259428203106,0.018630236387252808
155488000.0,-33.10754657786531,71.38851783550648,-0.014290091581642628,0.01687370054423809
158086000.0,-33.65548760301273,72.7393098287051,-0.01838819496333599,-0.00963579025119543
160684000.0,-34.16988418033522,74.10377560133814,0.005338517017662525,-0.018823793157935143
163282000.0,-34.72447700045698,75.45778740226487,0.018323367461562157,0.0010927004041150212
165880000.0,-35.256126736433345,76.81895645416004,0.0025812953244894743,0.017072033137083054
168478000.0,-35.78081712898055,78.17746268159769,-0.015198509208858013,0.0057616387493908405
171076000.0,-36.224156085286424,79.53635062639108,-0.00839004386216402,-0.012967647984623909
173674000.0,-36.76398632786897,80.88804639006764,0.010181202553212643,-0.010344683192670345
176272000.0,-37.22251989196521,82.25684872947605,0.011550789698958397,0.0074926516972482204
178870000.0,-37.750291862071755,83.60468998140736,-0.004472958855330944,0.012159842066466808
181468000.0,-38.35095511197809,84.96563121506486,-0.011967948637902737,-0.0017186534823849797
184066000.0,-38.838778892057036,86.32182813236773,-0.0008219333831220865,-0.011400800198316574
186664000.0,-39.416139659677725,87.68173701548983,0.010270290076732635,-0.00298506417311728
189262000.0,-39.91550309923421,89.05070943431159,0.004704809747636318,0.008934731595218182
191860000.0,-40.47143366764635,90.42106901982174,-0.007334364578127861,0.0059933592565357685
194458000.0,-40.91123100110622,91.78593278395657,-0.0070027513429522514,-0.005659911315888166
197056000.0,-41.494081304962585,93.15905164205577,0.003903474658727646,-0.007460161577910185
199654000.0,-42.02211872455473,94.52904331893436,0.007611746434122324,0.002199208829551935
202252000.0,-42.438738181533395,95.89298494435094,-0.0005614198744297028,0.007531122304499149
204850000.0,-42.96751164329969,97.2601338604611,-0.0070467256009578705,0.0009158120374195278
207448000.0,-43.477378970988724,98.63170470482343,-0.002161629032343626,-0.006342632696032524
210046000.0,-44.06171036293706,100.00349958049519,0.005413414444774389,-0.00315340724773705
212644000.0,-44.414028458172496,101.36311910389823,0.0040503935888409615,0.0044480361975729465
215242000.0,-44.88756543273568,102.75435349443465,-0.003459296887740493,0.004526081494987011
217840000.0,-45.41210204649252,104.11771719845436,-0.004840188659727573,-0.0023092497140169144
220438000.0,-45.60922797872987,105.49304115278436,0.001295427093282342,-0.0050799306482076645
223036000.0,-46.220591433934565,106.86985702702304,0.00487861130386591,0.00027205332298763096
225634000.0,-46.79293178651406,108.23829306592873,0.0006684792460873723,0.004525497555732727
228232000.0,-47.09908933762315,109.6084898777878,-0.004152571316808462,0.0015028927009552717
230830000.0,-47.52148150661096,111.00044692515874,-0.002112351590767503,-0.0036377222277224064
233428000.0,-47.7869330184277,112.36571528025841,0.0030358515214174986,-0.002725707832723856
236026000.0,-48.27850813647768,113.73704740559425,0.003093099920079112,0.002301563508808613
238624000.0,-48.677766906340906,115.1233548280881,-0.0016189415473490953,0.003307248465716839
241222000.0,-49.45665302834538,116.50047418637337,-0.003251925576478243,-0.0008704677456989884
243820000.0,-49.18214859585568,117.88371854621211,0.00025685789296403527,-0.0034649947192519903
246418000.0,-49.70384799119658,119.280119262617,0.0032554795034229755,-0.00032795799779705703
249016000.0,-50.09361453640916,120.60668422823606,0.0010569264413788915,0.00294442824088037
251614000.0,-50.67173804094605,122.04439086532132,-0.0025992479640990496,0.0013456817250698805
254212000.0,-50.89007032472413,123.36412182319698,-0.0019008530071005225,-0.002129241358488798
256810000.0,-51.105262571758665,124.68652045667795,0.0015574941644445062,-0.0023080906830728054
259408000.0,-51.40709413648847,126.11655989274733,0.0024182579945772886,0.001176674966700375
262006000.0,-51.282333149879975,127.44599060668861,-0.0005726998206228018,0.0026674584951251745
264604000.0,-52.29936008664315,128.83643167466727,-0.0024256128817796707,-7.554071635240689e-05
267202000.0,-52.22729572962649,130.1825502655491,-0.00047065431135706604,-0.002401317935436964
269800000.0,-53.10696267651138,131.57704946636244,0.002061801729723811,-0.0007993221515789628
272398000.0,-53.79203821289781,132.9239901733512,0.0011432563187554479,0.001693903235718608
274996000.0,-53.92654305661569,134.3496667170059,-0.0014875557972118258,0.0013550492003560066
277594000.0,-54.71009349550351,135.80789793924126,-0.0013830061070621014,-0.0012115567224100232
280192000.0,-54.79966208753984,137.05399328789704,0.000699780706781894,-0.0016798439901322126
282790000.0,-55.023612932903276,138.42382543862144,0.0017402692465111613,0.00034145821700803936
285388000.0,-54.9954803904909,139.79642449299874,7.91493039287161e-06,0.001779187354259193
287986000.0,-56.175259464834056,141.18022198769765,-0.0015248566633090377,0.0002955495729111135
290584000.0,-55.61413736933147,142.59087475311463,-0.0005706187803298235,-0.001555529423058033
293182000.0,-56.27132704196298,143.83239508227837,0.0011936305090785027,-0.0009669556748121977
295780000.0,-57.15543090623488,145.33087382750819,0.0009489920921623707,0.0010121907107532024
298378000.0,-57.51521223484326,146.56578538010754,-0.0006167531246319413,0.0011796936159953475
300976000.0,-57.508387202924496,148.004785735786,-0.0012514961417764425,-0.00045673392014577985
303574000.0,-57.46488223896512,149.46548672647717,0.00031805201433598995,-0.0013005998916924
306172000.0,-58.4746049518979,150.91953095293584,0.0011829645372927189,0.00014634327089879662
308770000.0,-58.348418764346796,152.10560172577757,0.0003128384123556316,0.0011682644253596663
311368000.0,-58.8386687242729,153.4958260940664,-0.0010330991353839636,0.0004891600110568106
313966000.0,-58.38647713147557,154.96566386713317,-0.0006223639356903732,-0.0010308300843462348
316564000.0,-60.660455718534294,156.1114221634004,0.0005252761766314507,-0.0007635498186573386
319162000.0,-59.230905397987385,157.61680129771625,0.0009387052850797772,0.0005590810324065387
321760000.0,-60.55576744503283,159.19189073430653,-0.0004834448336623609,0.0008038412197493017
324358000.0,-59.999705514334806,160.54660855385808,-0.000947560416534543,-0.00031968276016414165
326956000.0,-61.37342665557398,161.87049182404473,6.692485476378351e-05,-0.0008511188207194209
329554000.0,-60.27019505394337,163.2365785856015,0.0009616576135158539,-0.00012204810627736151
332152000.0,-62.12082287642251,164.6400868162471,0.00022664872813038528,0.000749850703869015
334750000.0,-61.45341452425385,165.95548667362846,-0.0007216428639367223,0.00044137530494481325
337348000.0,-61.68085340738039,167.42719612161514,-0.0004974022740498185,-0.0006570092518813908
339946000.0,-61.74326584228314,168.59736549103556,0.0004080576472915709,-0.0007091332809068263
342544000.0,-61.74299112122935,170.16539510339945,0.0007102820090949535,0.0004061069630552083
345142000.0,-62.57359901175103,171.44068125026664,-0.00016508378030266613,0.0007250097114592791
347740000.0,-62.203323201901924,172.80007906384446,-0.0007758897263556719,-9.686024895927403e-06
350338000.0,-64.13873469146242,174.21784723,-8.698574674781412e-05,-0.0006148366956040263
352936000.0,-64.04998533848543,175.55000191983729,0.0005827745189890265,-0.00023221813898999244
355534000.0,-64.2351115870211,177.13877579412727,0.0002170290390495211,0.0005744792870245874
358132000.0,-64.93655629154141,178.3573312811435,-0.0004283081507310271,0.0003707201103679836
360730000.0,-64.42817998822977,179.7292811654981,-0.00047502739471383393,-0.00036753062158823013
363328000.0,-65.79800396132255,180.7879710500435,7.482886576326564e-05,-0.0005074922228232026
365926000.0,-64.78000097014221,182.5775962682251,0.0005387254059314728,0.00020599615527316928
368524000.0,-70.18386199226826,183.80473182999253,-6.675044005532982e-06,0.00030953227542340755
371122000.0,-64.04077938339647,185.20318179581042,-0.0006208763807080686,9.433471859665588e-05
373720000.0,-67.74239109116687,186.92459843400823,-6.744137692749064e-08,-0.0004100911901332438
376318000.0,-68.61200598282386,188.2755766973068,0.00036208087112754583,-8.096166857285425e-05
378916000.0,-67.35051473546831,189.52234456325664,0.00022204710694495589,0.000367083732271567
381514000.0,-67.92323412510429,191.0802026908776,-0.00034094188595190644,0.00021230711718089879
384112000.0,-67.31487139156727,192.12976467704996,-0.00037956112646497786,-0.0002037290541920811
386710000.0,-69.29480760371324,193.40176053102326,6.605697853956372e-05,-0.00033655131119303405
389308000.0,-65.96724709056231,195.14438020754557,0.00046982537605799735,0.00017987299361266196
391906000.0,-67.32822119049548,196.3629718209448,-5.776746547780931e-06,0.0004300805157981813
394504000.0,-69.22241568964257,197.8500723655632,-0.00034498979221098125,2.4280614525196142e-05
397102000.0,-71.17981038024196,199.11867699657378,-0.00010046089300885797,-0.0002571358345448971
399700000.0,-69.5083418413987,200.39813327791114,0.0002635852142702788,-0.00020617801055777818
402298000.0,-71.38652654037591,202.04089084566985,0.0001503898238297552,0.0002237221342511475
404896000.0,-72.95692689008771,203.44713357658497,-0.0001636359083931893,0.00015440712741110474
407494000.0,-70.15951037653457,205.01067839510276,-0.00021470965293701738,-0.0002242621994810179
410092000.0,-70.90547278987304,206.39019537020175,0.00016459224571008235,-0.00023257274006027728
412690000.0,-75.80627639385354,207.8837755619285,0.0001391150726703927,8.313658327097073e-05
415288000.0,-75.37021988451866,208.70955350646847,3.491592360660434e-05,0.00016679218970239162
417886000.0,-75.18552578002488,210.65733831891802,-0.0001715420512482524,-2.9557724701589905e-05
420484000.0,-74.40142414491983,211.4030871996779,-0.00011596575495786965,-0.00015115503629203886
423082000.0,-77.28790049917397,213.4385712910063,0.0001341964234597981,-2.5770945285330527e-05
425680000.0,-81.2448647646494,214.84645936932333,2.992585359606892e-05,8.131578942993656e-05
428278000.0,-74.84134874394502,215.32483491918305,-2.271196171932388e-05,0.00017967612075153738
430876000.0,-75.2531830848339,217.04406135479746,-0.00016626834985800087,-4.676311800722033e-05
433474000.0,-77.04435385967355,218.28652887361238,-7.607693987665698e-06,-0.00014032822218723595
436072000.0,-82.17781029674036,219.79486111275068,7.729462231509387e-05,-9.055550435732584e-06
438670000.0,-77.82992501988501,221.52216015605669,-5.1182660172344185e-06,0.00012827981845475733
441268000.0,-78.63604277473942,222.65673089928168,-0.0001079328139894642,4.516928311204538e-05
443866000.0,-77.3823484317121,225.0261698979369,5.292356217978522e-05,-0.00012437932309694588
446464000.0,-80.2654256927417,225.1370187800942,4.761440504807979e-05,-8.449854794889688e-05
449062000.0,-80.44146584045073,227.4695068414452,2.7720543585019186e-05,9.091213723877445e-05
451660000.0,-82.368524711344,227.45872315259288,2.298889376106672e-05,7.257937977556139e-05
454258000.0,-79.196390489552,229.95210890887662,-8.954112854553387e-05,-6.336424121400341e-05
456856000.0,-79.87222682835036,233.02340687101955,8.675098069943488e-05,5.265782601782121e-05
459454000.0,-91.07628352521695,233.1051181003456,2.2619164155912586e-05,1.6397290892200544e-05
462052000.0,-82.95564442009163,233.9063516275521,1.0091581316373777e-05,7.043778896331787e-05
464650000.0,-75.49288189718816,235.92745276676365,-0.00016011121624615043,-5.093583240523003e-05
467248000.0,-77.15222111465847,237.05571547405498,-1.8616450688568875e-05,-0.00013754570682067424
469846000.0,-81.14355720437025,237.18248084671245,-6.806615715504449e-07,-8.766153041506186e-05
472444000.0,-79.94372706508034,239.70258570475363,5.923657590756193e-05,8.137225813698024e-05
475042000.0,-77.57281229361827,242.2102529055375,-0.00012603130016941577,-4.004061338491738e-05
477640000.0,-76.37113668175209,241.04162738230428,-9.896316623780876e-05,0.00011518561950651929
480238000.0,-82.71190476187414,238.87237385108207,7.272900984389707e-05,8.130699825414922e-06
482836000.0,-84.76449085632346,240.26591715243558,3.80613028028165e-06,5.7654226111480966e-05
485434000.0,-81.53950391589498,242.81439844374063,-5.128920383867808e-05,-6.621760985581204e-05
488032000.0,-80.58807418678217,241.54301946573509,-8.747565152589232e-05,3.2887626730371267e-05
490630000.0,-75.34930478188716,238.4585904186094,0.00016306486213579774,-5.088016769150272e-05
493228000.0,-82.01783492476237,237.56891334643504,2.9304743293323554e-05,-7.365424244198948e-05
495826000.0,-81.92812447649408,235.39684691117444,-7.811666728230193e-05,1.7681961253401823e-05
498424000.0,-82.56125833651468,237.56360795998015,2.716004746616818e-05,-6.933240365469828e-05
501022000.0,-97.24513731098442,238.3593962239093,1.2639465239772107e-05,-5.368412530515343e-06
503620000.0,-85.31547617383393,239.39692142005146,4.362937397672795e-05,3.22054183925502e-05
506218000.0,-73.67097576998052,241.59889927301222,-0.00019774361862801015,6.19794664089568e-05
508816000.0,-74.86598207630908,242.2118775650114,-0.00017202641174662858,-5.496128505910747e-05
511414000.0,-76.92990095357588,243.52454410223612,7.275301868503448e-06,-0.00014221237506717443
514012000.0,-80.72380532137166,245.33256950995863,8.820636867312714e-05,2.616276833578013e-05
516610000.0,-76.07428667070054,246.24129263641834,5.7370274589629844e-05,0.00014629254292231053
519208000.0,-74.41091460097213,248.12513535886373,-0.00018995648133568466,1.1541542335180566e-05
521806000.0,-73.96067709903281,250.00989796845724,5.0224665756104514e-05,-0.00019403685291763395
524404000.0,-77.23299371956458,250.21711744009104,6.111134280217811e-05,-0.00012319009692873806
527002000.0,-75.32293903382791,251.83265598088673,0.00014993021613918245,8.293101564049721e-05
529600000.0,-78.76749558672331,253.1305506322053,-2.6536186851444654e-05,0.00011214915139134973
532198000.0,-73.38393242366136,254.9475602555635,-0.00019012996926903725,-9.863486047834158e-05
534796000.0,-74.28165366974129,255.80183264505908,-4.5533422962762415e-05,-0.0001877165777841583
537394000.0,-74.43457100410082,257.70955800009955,0.00018886062025558203,1.875097404990811e-05
539992000.0,-71.30778190493855,258.8551617948504,8.717794844415039e-05,0.00025767870829440653
542590000.0,-74.0776870349433,259.9215328322934,-0.0001333604595856741,0.00014601334987673908
545188000.0,-70.90162607197902,261.7325180814674,-0.00015870080096647143,-0.0002367840352235362
547786000.0,-71.55946453458172,262.8636317288891,0.00013601031969301403,-0.00022656796500086784
550384000.0,-74.49708003850057,264.7853198877186,0.00011837381316581741,0.0001466043759137392
552982000.0,-75.00820727903651,265.4717698711642,-1.2774785318470094e-06,0.00017765539814718068
555580000.0,-71.27511862132363,267.1579899977651,-0.0002710011904127896,-3.339619070175104e-05
558178000.0,-73.26997806260555,268.70183756074886,2.0729776224470697e-05,-0.00021602834749501199
560776000.0,-70.03659527660636,269.8133271099527,0.0002943064027931541,-0.00011200287553947419
